Wavelength,Absorbance
250,0.2649
251,0.2619
252,0.2594
253,0.2592
254,0.2598
255,0.2574
256,0.2519
257,0.2464
258,0.2419
259,0.239
260,0.2376
261,0.2353
262,0.2311
263,0.2265
264,0.223
265,0.2204
266,0.2183
267,0.2167
268,0.216
269,0.215
270,0.213
271,0.2111
272,0.2096
273,0.2081
274,0.2062
275,0.2047
276,0.2029
277,0.2012
278,0.1996
279,0.198
280,0.1959
281,0.1937
282,0.1909
283,0.1879
284,0.1845
285,0.1806
286,0.1764
287,0.1719
288,0.1673
289,0.163
290,0.1582
291,0.1536
292,0.1491
293,0.1447
294,0.1403
295,0.1362
296,0.1322
297,0.1285
298,0.1248
299,0.1214
300,0.1177
301,0.1144
302,0.1112
303,0.108
304,0.1048
305,0.102
306,0.0993
307,0.097
308,0.0947
309,0.0929
310,0.0912
311,0.0898
312,0.0884
313,0.0873
314,0.0862
315,0.0853
316,0.0844
317,0.0836
318,0.0829
319,0.0824
320,0.082
321,0.0813
322,0.0808
323,0.0805
324,0.0799
325,0.0793
326,0.079
327,0.0785
328,0.0782
329,0.0778
330,0.0771
331,0.0767
332,0.0763
333,0.0763
334,0.0756
335,0.0754
336,0.0753
337,0.0751
338,0.0745
339,0.0742
340,0.074
341,0.0736
342,0.0731
343,0.0728
344,0.0723
345,0.0721
346,0.0715
347,0.0711
348,0.0708
349,0.0705
350,0.0702
351,0.0701
352,0.0698
353,0.0696
354,0.0698
355,0.0698
356,0.0697
357,0.0701
358,0.0702
359,0.0702
360,0.0705
361,0.0707
362,0.071
363,0.0713
364,0.0718
365,0.0717
366,0.0719
367,0.0722
368,0.0724
369,0.0725
370,0.0728
371,0.0731
372,0.0733
373,0.0736
374,0.074
375,0.0746
376,0.0752
377,0.0756
378,0.0761
379,0.0764
380,0.0764
381,0.0763
382,0.076
383,0.0756
384,0.0751
385,0.0744
386,0.0735
387,0.0726
388,0.0716
389,0.0706
390,0.0696
391,0.0687
392,0.0678
393,0.0672
394,0.0667
395,0.0662
396,0.0659
397,0.0657
398,0.0658
399,0.0659
400,0.066
401,0.0662
402,0.0663
403,0.0665
404,0.0665
405,0.0665
406,0.0661
407,0.0657
408,0.0653
409,0.0647
410,0.0639
411,0.063
412,0.0621
413,0.0609
414,0.0598
415,0.0587
416,0.0575
417,0.0566
418,0.0556
419,0.0549
420,0.0543
421,0.0536
422,0.0532
423,0.0527
424,0.0525
425,0.0524
426,0.0522
427,0.0519
428,0.0518
429,0.0517
430,0.0516
431,0.0514
432,0.0513
433,0.0512
434,0.0509
435,0.0505
436,0.0501
437,0.05
438,0.0496
439,0.0492
440,0.0489
441,0.0487
442,0.0483
443,0.048
444,0.0477
445,0.0476
446,0.0474
447,0.0471
448,0.0471
449,0.0471
450,0.047
451,0.0469
452,0.047
453,0.0469
454,0.047
455,0.047
456,0.0471
457,0.0472
458,0.0473
459,0.0473
460,0.0476
461,0.0476
462,0.0478
463,0.0479
464,0.0481
465,0.0483
466,0.0485
467,0.0488
468,0.0492
469,0.0495
470,0.0499
471,0.0504
472,0.0507
473,0.0512
474,0.0516
475,0.0522
476,0.0528
477,0.0534
478,0.0541
479,0.0548
480,0.0555
481,0.0562
482,0.0569
483,0.0576
484,0.0582
485,0.0588
486,0.0594
487,0.06
488,0.0606
489,0.0612
490,0.0619
491,0.0625
492,0.0632
493,0.0637
494,0.0645
495,0.0653
496,0.0662
497,0.0673
498,0.0685
499,0.07
500,0.0716
501,0.0733
502,0.0752
503,0.0775
504,0.0798
505,0.0823
506,0.0851
507,0.088
508,0.0911
509,0.0945
510,0.0978
511,0.1013
512,0.1048
513,0.1083
514,0.1119
515,0.1152
516,0.1183
517,0.1214
518,0.1243
519,0.1269
520,0.1293
521,0.1314
522,0.1332
523,0.1347
524,0.1359
525,0.137
526,0.1379
527,0.1387
528,0.1396
529,0.1407
530,0.142
531,0.1436
532,0.1455
533,0.1479
534,0.1509
535,0.1546
536,0.1588
537,0.1637
538,0.1696
539,0.1766
540,0.1845
541,0.1934
542,0.2037
543,0.215
544,0.2268
545,0.2398
546,0.2536
547,0.268
548,0.2831
549,0.2981
550,0.313
551,0.3276
552,0.3414
553,0.3548
554,0.3671
555,0.3784
556,0.3887
557,0.3972
558,0.4039
559,0.4087
560,0.4116
561,0.4125
562,0.4116
563,0.4088
564,0.4043
565,0.3985
566,0.3914
567,0.3834
568,0.375
569,0.3665
570,0.3581
571,0.3504
572,0.3437
573,0.338
574,0.3339
575,0.3314
576,0.3303
577,0.3311
578,0.3338
579,0.3383
580,0.3455
581,0.3547
582,0.3658
583,0.3794
584,0.3957
585,0.4139
586,0.4353
587,0.4594
588,0.4851
589,0.513
590,0.5428
591,0.5742
592,0.6067
593,0.6393
594,0.6717
595,0.7035
596,0.7332
597,0.7614
598,0.7875
599,0.8109
600,0.8318
601,0.8488
602,0.8617
603,0.87
604,0.8736
605,0.8724
606,0.8664
607,0.855
608,0.8385
609,0.8172
610,0.7914
611,0.7613
612,0.7282
613,0.6924
614,0.6546
615,0.6156
616,0.5767
617,0.5382
618,0.4999
619,0.4636
620,0.428
621,0.3931
622,0.3609
623,0.3306
624,0.3014
625,0.2748
626,0.2506
627,0.2279
628,0.2071
629,0.188
630,0.1704
631,0.1547
632,0.1411
633,0.1289
634,0.1179
635,0.1083
636,0.0998
637,0.0926
638,0.0863
639,0.0809
640,0.0761
641,0.072
642,0.0684
643,0.0653
644,0.0624
645,0.0599
646,0.0577
647,0.0559
648,0.0543
649,0.0528
650,0.0515
651,0.0503
652,0.0493
653,0.0484
654,0.0475
655,0.0468
656,0.0462
657,0.0456
658,0.0451
659,0.0448
660,0.0443
661,0.044
662,0.0437
663,0.0435
664,0.0432
665,0.0429
666,0.0428
667,0.0427
668,0.0426
669,0.0424
670,0.0422
671,0.0422
672,0.0421
673,0.0419
674,0.0418
675,0.0417
676,0.0417
677,0.0416
678,0.0415
679,0.0415
680,0.0415
681,0.0416
682,0.0414
683,0.0414
684,0.0413
685,0.0413
686,0.0413
687,0.0411
688,0.0411
689,0.0411
690,0.0409
691,0.041
692,0.041
693,0.041
694,0.0411
695,0.0411
696,0.0411
697,0.0412
698,0.0412
699,0.0412
700,0.0412
701,0.0413
702,0.0413
703,0.0414
704,0.0413
705,0.0412
706,0.0413
707,0.0412
708,0.0413
709,0.0414
710,0.0414
711,0.0414
712,0.0413
713,0.0413
714,0.0413
715,0.0413
716,0.0414
717,0.0413
718,0.0414
719,0.0415
720,0.0416
721,0.0417
722,0.0418
723,0.0419
724,0.042
725,0.0419
726,0.0421
727,0.0424
728,0.0425
729,0.0428
730,0.043
731,0.0432
732,0.0434
733,0.0436
734,0.0439
735,0.0444
736,0.0446
737,0.0449
738,0.0452
739,0.0455
740,0.0458
741,0.046
742,0.0462
743,0.0464
744,0.0465
745,0.0466
746,0.0469
747,0.047
748,0.0471
749,0.0474
750,0.0473
751,0.0474
752,0.0475
753,0.0475
754,0.0475
755,0.0475
756,0.0475
757,0.0474
758,0.0475
759,0.0473
760,0.0473
761,0.0471
762,0.047
763,0.0469
764,0.0467
765,0.0464
766,0.0461
767,0.0459
768,0.0456
769,0.0453
770,0.0453
771,0.0452
772,0.045
773,0.0448
774,0.0447
775,0.0447
776,0.0447
777,0.0447
778,0.0448
779,0.0448
780,0.0449
781,0.045
782,0.045
783,0.0451
784,0.0451
785,0.0451
786,0.0452
787,0.0452
788,0.0452
789,0.0453
790,0.0453
791,0.0453
792,0.0454
793,0.0453
794,0.0454
795,0.0454
796,0.0454
797,0.0456
798,0.0455
799,0.0455
800,0.0456
